POLYGON3D
top radius 6271.00000000000000 4
bottom radius 4000.00000000000000 2
lat-lon
referencePoint  30.00000   90.00000 in
 60.000558   90.000000
 59.903439   93.571518
 59.614130   97.081107
 59.138595  100.471465
 58.486173  103.693704
 57.668823  106.709709
 56.700261  109.492921
 55.595130  112.027770
 54.368301  114.308176
 53.034321  116.335603
 51.607050  118.117054
 50.099434  119.663246
 48.523401  120.987109
 46.889849  122.102621
 45.208682  123.023968
 43.488887  123.764971
 41.738623  124.338722
 39.965322  124.757373
 38.175779  125.032041
 36.376252  125.172781
 34.572534  125.188615
 32.770038  125.087589
 30.973851  124.876844
 29.188802  124.562700
 27.419502  124.150741
 25.670392  123.645899
 23.945774  123.052540
 22.249842  122.374536
 20.586706  121.615346
 18.960412  120.778084
 17.374953  119.865589
 15.834281  118.880483
 14.342312  117.825239
 12.902928  116.702234
 11.519973  115.513806
 10.197249  114.262305
  8.938501  112.950144
  7.747410  111.579840
  6.627570  110.154061
  5.582469  108.675659
  4.615467  107.147705
  3.729768  105.573509
  2.928394  103.956644
  2.214155  102.300950
  1.589617  100.610542
  1.057079   98.889797
  0.618538   97.143342
  0.275668   95.376025
  0.029796   93.592887
 -0.118116   91.799115
 -0.167485   90.000000
 -0.118116   88.200885
  0.029796   86.407113
  0.275668   84.623975
  0.618538   82.856658
  1.057079   81.110203
  1.589617   79.389458
  2.214155   77.699050
  2.928394   76.043356
  3.729768   74.426491
  4.615467   72.852295
  5.582469   71.324341
  6.627570   69.845939
  7.747410   68.420160
  8.938501   67.049856
 10.197249   65.737695
 11.519973   64.486194
 12.902928   63.297766
 14.342312   62.174761
 15.834281   61.119517
 17.374953   60.134411
 18.960412   59.221916
 20.586706   58.384654
 22.249842   57.625464
 23.945774   56.947460
 25.670392   56.354101
 27.419502   55.849259
 29.188802   55.437300
 30.973851   55.123156
 32.770038   54.912411
 34.572534   54.811385
 36.376252   54.827219
 38.175779   54.967959
 39.965322   55.242627
 41.738623   55.661278
 43.488887   56.235029
 45.208682   56.976032
 46.889849   57.897379
 48.523401   59.012891
 50.099434   60.336754
 51.607050   61.882946
 53.034321   63.664397
 54.368301   65.691824
 55.595130   67.972230
 56.700261   70.507079
 57.668823   73.290291
 58.486173   76.306296
 59.138595   79.528535
 59.614130   82.918893
 59.903439   86.428482
